2016.4274 340395.2000
2016.4301 340396.7000
2016.4329 340398.4000
2021.5178 340565.6000
2021.5205 340558.7000
2021.5233 340569.9000
2021.5260 340555.9000
2021.6438 340545.1000
2021.6466 340543.7000
2021.6466 340571.3000
2021.6493 340568.4000
2021.6521 340570.9000
2021.6548 340573.3000
2021.6575 340577.8000
2021.6603 340571.1000
2021.6630 340569.4000
2021.6658 340571.2000
2021.6685 340570.2000
2021.6712 340567.5000
2021.6740 340568.2000
2021.6767 340566.8000
2021.6795 340569.5000
2021.6822 340570.9000
2021.6849 340574.2000
2021.6877 340572.0000
2021.6904 340575.2000
2021.6932 340576.9000
2021.6959 340572.8000
2021.6986 340575.1000
2021.7014 340568.0000
2021.7041 340573.7000
2021.7068 340570.8000
2021.7096 340574.9000
2021.7123 340576.0000
2021.7151 340578.5000
2021.7178 340566.6000
2021.7205 340571.6000
2021.7233 340577.1000
2021.7260 340574.7000
2021.7288 340576.8000
2021.7315 340576.2000
2021.7342 340573.3000
2021.7370 340567.9000
2021.7397 340572.4000
2021.7425 340576.7000
2021.7452 340576.9000
2021.7479 340574.3000
2021.7507 340581.6000
2021.7534 340567.7000
2021.7562 340573.8000
2021.7589 340578.4000
2021.7616 340574.6000
2021.7644 340578.2000
2021.7671 340575.8000
2021.7699 340573.6000
2021.7726 340570.5000
2021.7753 340574.2000
2021.7781 340570.8000
2021.7808 340568.6000
2021.7836 340573.6000
2021.7863 340571.9000
2021.7890 340565.4000
2021.7918 340582.1000
2021.7945 340572.3000
2021.7973 340573.2000
2021.8000 340570.8000
2021.8027 340565.7000
2021.8055 340563.6000
2021.8082 340568.4000
2021.8110 340570.8000
2021.8137 340576.8000
2021.8164 340569.4000
2021.8192 340568.1000
2021.8219 340570.5000
2021.8247 340564.7000
2021.8274 340569.4000
2021.8301 340570.8000
2021.8329 340574.5000
2021.8356 340572.0000
2021.8384 340568.8000
2021.8411 340563.8000
2021.8438 340569.6000
2021.8466 340572.5000
2021.8493 340567.5000
2021.8521 340569.9000
2021.8548 340564.3000
2021.8575 340568.0000
2021.8603 340565.3000
2021.8630 340568.3000
2021.8658 340567.5000
2021.8685 340579.4000
2021.8712 340568.3000
2021.8740 340567.0000
2021.8767 340567.3000
2021.8795 340572.0000
2021.8822 340570.5000
2021.8849 340568.1000
2021.8877 340568.4000
2021.8904 340565.1000
2021.8932 340570.0000
2021.8959 340570.0000
2021.8986 340564.2000
2021.9014 340573.3000
2021.9041 340568.7000
2021.9068 340570.8000
2021.9096 340571.8000
2021.9123 340569.7000
2021.9151 340564.4000
2021.9178 340562.3000
2021.9205 340571.3000
2021.9233 340579.8000
2021.9260 340568.8000
2021.9288 340570.1000
2021.9315 340567.8000
2021.9342 340568.3000
2021.9370 340571.5000
2021.9397 340566.7000
2021.9425 340565.5000
2021.9452 340568.5000
2021.9479 340569.8000
2021.9507 340577.8000
2021.9534 340574.1000
2021.9562 340564.1000
2021.9589 340561.6000
2021.9616 340579.6000
2021.9644 340571.3000
2021.9671 340574.0000
2021.9699 340568.7000
2021.9726 340571.1000
2021.9753 340569.9000
2021.9781 340569.5000
2021.9808 340572.9000
2021.9836 340562.0000
2021.9863 340567.0000
2021.9890 340564.9000
2021.9918 340567.9000
2021.9945 340567.4000
2021.9973 340571.0000
2022.0000 340568.4000
2022.0027 340567.7000
2022.0055 340570.7000
2022.0082 340567.9000
2022.0110 340566.4000
2022.0137 340567.7000
2022.0164 340569.5000
2022.0192 340566.4000
2022.0219 340572.4000
2022.0247 340571.1000
2022.0274 340572.4000
2022.0301 340565.1000
2022.0329 340563.7000
2022.0356 340571.2000
2022.0384 340566.5000
2022.0411 340570.5000
2022.0438 340570.7000
2022.0466 340566.6000
2022.0493 340573.2000
2022.0521 340576.1000
2022.0548 340571.8000
2022.0575 340562.8000
2022.0603 340569.9000
2022.0630 340574.1000
2022.0658 340571.9000
2022.0685 340576.2000
2022.0712 340565.7000
2022.0740 340564.8000
2022.0767 340569.6000
2022.0795 340575.4000
2022.0822 340578.3000
2022.0849 340566.4000
2022.0877 340563.3000
2022.0904 340574.3000
2022.0932 340569.0000
2022.0959 340568.7000
2022.0986 340566.3000
2022.1014 340565.7000
2022.1041 340564.5000
2022.1068 340569.5000
2022.1096 340565.6000
2022.1123 340570.3000
2022.1151 340568.5000
2022.1178 340570.0000
2022.1205 340576.5000
2022.1233 340570.8000
2022.1260 340565.2000
2022.1288 340569.0000
2022.1315 340572.4000
2022.1342 340570.2000
2022.1370 340572.5000
2022.1397 340575.6000
2022.1425 340571.9000
2022.1452 340573.6000
2022.1479 340569.2000
2022.1507 340565.2000
2022.1534 340563.1000
2022.1562 340567.8000
2022.1589 340570.4000
2022.1616 340573.5000
2022.1644 340573.5000
2022.1671 340573.7000
2022.1699 340579.3000
2022.1726 340575.2000
2022.1753 340568.3000
2022.1781 340571.8000
2022.1808 340563.5000
2022.1836 340570.8000
2022.1863 340567.7000
2022.1890 340561.9000
2022.1918 340564.8000
2022.1945 340565.5000
2022.1973 340570.8000
2022.2000 340571.8000
2022.2027 340568.0000
2022.2055 340566.5000
2022.2082 340567.3000
2022.2110 340572.7000
2022.2137 340573.8000
2022.2164 340563.9000
2022.2192 340572.1000
2022.2219 340568.2000
2022.2247 340564.2000
2022.2274 340571.5000
2022.2301 340572.8000
2022.2329 340572.6000
2022.2356 340563.3000
2022.2384 340563.5000
2022.2411 340565.2000
2022.2438 340566.5000
2022.2466 340567.5000
2022.2493 340564.8000
2022.2521 340570.1000
2022.2548 340565.9000
2022.2575 340565.8000
2022.2603 340561.0000
2022.2630 340566.9000
2022.2658 340566.1000
2022.2685 340565.0000
2022.2712 340568.8000
2022.2740 340570.1000
2022.2767 340554.9000
2022.2795 340564.8000
2022.2822 340560.5000
2022.2849 340562.2000
2022.2877 340570.3000
2022.2904 340571.4000
2022.2932 340568.2000
2022.2959 340570.3000
2022.2986 340564.4000
2022.3014 340564.4000
2022.3041 340570.2000
2022.3068 340567.1000
2022.3096 340560.8000
2022.3123 340567.3000
2022.3151 340571.6000
2022.3178 340568.4000
2022.3205 340573.1000
2022.3233 340568.5000
2022.3260 340571.3000
2022.3288 340570.3000
2022.3315 340569.8000
2022.3342 340560.5000
2022.3370 340563.2000
2022.3397 340572.3000
2022.3425 340568.4000
2022.3452 340571.0000
2022.3479 340568.1000
2022.3507 340571.0000
2022.3534 340574.4000
2022.3562 340573.4000
2022.3589 340576.1000
2022.3616 340571.2000
2022.3644 340582.0000
2022.3671 340573.0000
2022.3699 340567.1000
2022.3726 340572.1000
2022.3753 340570.4000
2022.3781 340572.1000
2022.3808 340561.8000
2022.3836 340566.7000
2022.3863 340568.4000
2022.3890 340567.7000
2022.3918 340566.1000
2022.3945 340562.3000
2022.3973 340564.3000
2022.4000 340567.9000
2022.4027 340570.9000
2022.4055 340571.0000
2022.4082 340570.4000
2022.4110 340572.2000
2022.4137 340579.2000
2022.4164 340570.0000
2022.4192 340567.7000
2022.4219 340573.0000
2022.4247 340567.7000
2022.4274 340567.0000
2022.4301 340569.3000
2022.4329 340572.9000
2022.4356 340572.3000
2022.4384 340571.4000
2022.4411 340573.8000
2022.4438 340567.2000
2022.4466 340571.8000
2022.4493 340568.6000
2022.4521 340576.8000
2022.4548 340577.4000
2022.4575 340570.9000
2022.4603 340560.5000
2022.4630 340568.9000
2022.4658 340562.5000
2022.4685 340570.7000
2022.4712 340574.4000
2022.4740 340573.2000
2022.4767 340577.7000
2022.4795 340566.4000
2022.4822 340573.3000
2022.4849 340563.3000
2022.4877 340573.3000
2022.4904 340573.6000
2022.4932 340564.5000
2022.4959 340566.4000
2022.4986 340562.3000
2022.5014 340570.2000
2022.5041 340572.5000
2022.5068 340569.3000
2022.5096 340569.6000
2022.5123 340568.3000
2022.5151 340561.0000
2022.5178 340580.1000
2022.5205 340566.0000
2022.5233 340569.3000
2022.5260 340567.2000
2022.5288 340574.7000
2022.5315 340565.2000
2022.5342 340561.9000
2022.5370 340560.7000
2022.5397 340560.5000
2022.5425 340560.9000
2022.5452 340566.5000
2022.5479 340570.0000
2022.5507 340560.0000
2022.5534 340561.7000
2022.5562 340568.7000
2022.5589 340568.2000
2022.5616 340562.5000
2022.5644 340557.6000
2022.5671 340570.1000
2022.5699 340567.8000
2022.5726 340570.6000
2022.5753 340560.0000
2022.5781 340562.4000
2022.5808 340569.2000
2022.5836 340554.9000
2022.5863 340565.8000
2022.5890 340564.8000
2022.5918 340569.1000
2022.5945 340563.9000
2022.5973 340567.7000
2022.6000 340567.7000
2022.6027 340571.9000
2022.6055 340566.6000
2022.6082 340562.3000
2022.6110 340555.4000
2022.6137 340567.6000
2022.6164 340577.1000
2022.6192 340570.8000
2022.6219 340572.4000
2022.6247 340566.4000
2022.6274 340566.3000
2022.6301 340569.5000
2022.6329 340562.5000
2022.6356 340562.8000
2022.6384 340566.0000
2022.6411 340565.2000
2022.6438 340566.6000
2022.6466 340565.2000
2022.6493 340572.2000
2022.6521 340565.8000
2022.6548 340568.1000
2022.6575 340571.8000
2022.6603 340564.7000
2022.6630 340576.0000
2022.6658 340572.4000
2022.6685 340571.1000
2022.6712 340566.2000
2022.6740 340567.3000
2022.6767 340566.1000
2022.6795 340568.1000
2022.6822 340568.3000
2022.6849 340565.7000
2022.6877 340569.2000
2022.6904 340567.3000
2022.6932 340571.2000
2022.6959 340564.7000
2022.6986 340567.9000
2022.7014 340573.4000
2022.7041 340577.0000
2022.7068 340565.9000
2022.7096 340578.1000
2022.7123 340572.3000
2022.7151 340573.9000
2022.7178 340567.4000
2022.7205 340566.1000
2022.7233 340570.3000
2022.7260 340561.2000
2022.7288 340567.2000
2022.7315 340565.6000
2022.7342 340566.8000
2022.7370 340567.8000
2022.7397 340562.8000
2022.7425 340558.2000
2022.7452 340567.2000
2022.7479 340565.5000
2022.7507 340567.7000
2022.7534 340564.8000
2022.7562 340567.9000
2022.7589 340559.9000
2022.7616 340561.9000
2022.7644 340567.8000
2022.7671 340574.1000
2022.7699 340560.0000
2022.7726 340562.8000
2022.7753 340567.6000
2022.7781 340566.6000
2022.7808 340572.0000
2022.7836 340566.8000
2022.7863 340568.7000
2022.7890 340561.5000
2022.7918 340561.0000
2022.7945 340565.7000
2022.7973 340565.6000
2022.8000 340567.9000
2022.8027 340566.5000
2022.8055 340561.4000
2022.8082 340562.2000
2022.8110 340569.8000
2022.8137 340571.6000
2022.8164 340571.7000
2022.8192 340567.8000
2022.8219 340576.4000
2022.8247 340569.3000
2022.8274 340568.2000
2022.8301 340572.9000
2022.8329 340572.7000
2022.8356 340565.6000
2022.8384 340567.8000
2022.8411 340569.6000
2022.8438 340572.6000
2022.8466 340572.0000
2022.8493 340572.2000
2022.8521 340569.5000
2022.8548 340565.2000
2022.8575 340569.2000
2022.8603 340574.7000
2022.8630 340564.9000
2022.8658 340563.5000
2022.8685 340567.8000
2022.8712 340565.4000
2022.8740 340573.0000
2022.8767 340566.2000
2022.8795 340562.3000
2022.8822 340566.3000
2022.8849 340566.7000
2022.8877 340564.1000
2022.8904 340567.5000
2022.8932 340572.3000
2022.8959 340562.0000
2022.8986 340569.8000
2022.9014 340565.0000
2022.9041 340570.0000
2022.9068 340568.8000
2022.9096 340564.4000
2022.9123 340568.4000
2022.9151 340571.0000
2022.9178 340575.8000
2022.9205 340577.9000
2022.9233 340575.2000
2022.9260 340576.4000
2022.9288 340572.3000
2022.9315 340578.0000
2022.9342 340576.8000
2022.9370 340576.6000
2022.9397 340571.0000
2022.9425 340574.6000
2022.9452 340566.3000
2022.9479 340568.7000
2022.9507 340567.0000
2022.9534 340562.0000
2022.9562 340573.3000
2022.9589 340571.0000
2022.9616 340566.5000
2022.9644 340568.7000
2022.9671 340571.4000
2022.9699 340569.2000
2022.9726 340570.9000
2022.9753 340571.5000
2022.9781 340567.4000
2022.9808 340566.6000
2022.9836 340565.1000
2022.9863 340565.2000
2022.9890 340563.4000
2022.9918 340563.1000
2022.9945 340556.5000
2022.9973 340560.4000
2023.0000 340562.9000
2023.0027 340558.8000
2023.0055 340563.8000
2023.0082 340567.2000
2023.0110 340567.1000
2023.0137 340567.0000
2023.0164 340568.1000
2023.0192 340572.4000
2023.0411 340566.3000
2023.0438 340562.2000
2023.0466 340568.0000
2023.0493 340570.5000
2023.0521 340562.0000
2023.0548 340564.1000
2023.0575 340568.8000
2023.0603 340565.7000
2023.0630 340565.0000
2023.0658 340566.5000
2023.0685 340572.7000
2023.0712 340569.4000
2023.0740 340570.0000
2023.0767 340573.9000
2023.0795 340577.0000
2023.0822 340573.5000
2023.0849 340568.5000
2023.0877 340576.9000
2023.0904 340571.1000
2023.0932 340576.1000
2023.0959 340567.6000
2023.0986 340568.9000
2023.1014 340571.7000
2023.1041 340572.3000
2023.1068 340574.9000
2023.1096 340576.3000
2023.1123 340566.3000
2023.1151 340573.9000
2023.1178 340573.7000
2023.1205 340575.7000
2023.1233 340571.1000
2023.1260 340580.4000
2023.1288 340576.1000
2023.1315 340574.3000
2023.1342 340568.8000
2023.1370 340568.8000
2023.1397 340574.9000
2023.1425 340576.8000
2023.1452 340566.3000
2023.1479 340578.2000
2023.1507 340577.2000
2023.1534 340574.5000
2023.1562 340574.0000
2023.1589 340578.0000
2023.1616 340571.1000
2023.1644 340572.8000
2023.1671 340571.4000
2023.1699 340580.1000
2023.1726 340579.5000
2023.1753 340573.4000
2023.1781 340562.5000
2023.1808 340574.9000
2023.1836 340579.9000
2023.1863 340572.3000
2023.1890 340576.9000
2023.1918 340575.6000
2023.1945 340571.0000
2023.1973 340579.1000
2023.2000 340571.4000
2023.2027 340566.3000
2023.2055 340568.2000
2023.2082 340568.6000
2023.2110 340573.4000
2023.2137 340570.1000
2023.2164 340568.8000
2023.2192 340574.6000
2023.2219 340565.4000
2023.2247 340568.1000
2023.2274 340568.7000
2023.2301 340573.3000
2023.2329 340571.8000
2023.2356 340574.9000
2023.2384 340577.6000
2023.2411 340569.6000
2023.2438 340568.0000
2023.2466 340565.9000
2023.2493 340574.6000
2023.2521 340572.7000
2023.2548 340571.7000
2023.2575 340571.3000
2023.2603 340575.2000
2023.2630 340575.0000
2023.2658 340571.1000
2023.2685 340571.7000
2023.2712 340562.1000
2023.2740 340566.7000
2023.2767 340566.0000
2023.2795 340565.6000
2023.2822 340570.1000
2023.2849 340567.0000
2023.2877 340567.2000
2023.2904 340573.0000
2023.2932 340570.4000
2023.2959 340571.8000
2023.2986 340568.2000
2023.3014 340568.8000
2023.3041 340569.8000
2023.3068 340569.6000
2023.3096 340568.0000
2023.3123 340575.6000
2023.3151 340565.6000
2023.3178 340571.0000
2023.3205 340570.3000
2023.3233 340568.8000
2023.3260 340567.9000
2023.3288 340569.7000
2023.3315 340568.6000
2023.3342 340565.1000
2023.3370 340568.4000
2023.3397 340563.4000
2023.3425 340568.8000
2023.3452 340571.1000
2023.3479 340576.6000
2023.3507 340565.2000
2023.3534 340566.2000
2023.3562 340565.1000
2023.3589 340563.7000
2023.3616 340567.9000
2023.3644 340568.4000
2023.3671 340569.1000
2023.3699 340565.8000
2023.3726 340563.1000
2023.3753 340570.3000
2023.3781 340571.3000
2023.3808 340568.1000
2023.3836 340561.4000
2023.3863 340565.3000
2023.3890 340557.6000
2023.3918 340570.7000
2023.3945 340568.2000
2023.3973 340566.9000
2023.4000 340561.7000
2023.4027 340568.2000
